# Quartz Sand Albedo
# From the USGS Spectral Library
0.2421  0.1744
0.2481  0.1675
0.2536  0.1740
0.2586  0.1743
0.2636  0.1772
0.2686  0.1826
0.2731  0.1808
0.2771  0.1873
0.2811  0.1893
0.2851  0.1954
0.2891  0.1926
0.2931  0.1923
0.2971  0.1967
0.3011  0.2046
0.3051  0.2064
0.3091  0.2096
0.3131  0.2121
0.3171  0.2193
0.3211  0.2209
0.3251  0.2296
0.3291  0.2313
0.3331  0.2346
0.3371  0.2408
0.3411  0.2477
0.3451  0.2558
0.3491  0.2595
0.3531  0.2768
0.3571  0.2816
0.3606  0.2878
0.3636  0.2915
0.3666  0.2951
0.3696  0.2985
0.3726  0.3029
0.3756  0.3078
0.3786  0.3126
0.3811  0.3175
0.3831  0.3184
0.3851  0.3203
0.3871  0.3252
0.3891  0.3268
0.3911  0.3302
0.3931  0.3318
0.3951  0.3354
0.3971  0.3371
0.3991  0.3384
0.4011  0.3419
0.4031  0.3426
0.4051  0.3441
0.4071  0.3459
0.4091  0.3474
0.4111  0.3498
0.4128  0.3511
0.4158  0.3538
0.4188  0.3551
0.4218  0.3578
0.4248  0.3615
0.4278  0.3629
0.4308  0.3670
0.4338  0.3700
0.4368  0.3726
0.4398  0.3750
0.4428  0.3777
0.4458  0.3798
0.4488  0.3816
0.4513  0.3830
0.4533  0.3825
0.4553  0.3849
0.4573  0.3853
0.4593  0.3846
0.4613  0.3858
0.4633  0.3866
0.4653  0.3876
0.4673  0.3882
0.4693  0.3882
0.4713  0.3891
0.4733  0.3895
0.4753  0.3905
0.4773  0.3911
0.4793  0.3932
0.4813  0.3942
0.4833  0.3940
0.4853  0.3959
0.4873  0.3960
0.4893  0.3977
0.4913  0.3984
0.4933  0.4006
0.4953  0.4020
0.4973  0.4036
0.4993  0.4046
0.5013  0.4059
0.5033  0.4075
0.5053  0.4090
0.5073  0.4095
0.5093  0.4123
0.5113  0.4130
0.5133  0.4157
0.5153  0.4161
0.5173  0.4176
0.5193  0.4195
0.5213  0.4224
0.5233  0.4229
0.5253  0.4241
0.5273  0.4258
0.5293  0.4273
0.5313  0.4283
0.5333  0.4303
0.5353  0.4318
0.5373  0.4332
0.5393  0.4346
0.5413  0.4366
0.5433  0.4379
0.5453  0.4395
0.5473  0.4411
0.5493  0.4415
0.5513  0.4424
0.5533  0.4431
0.5553  0.4451
0.5573  0.4461
0.5593  0.4468
0.5613  0.4476
0.5633  0.4494
0.5653  0.4501
0.5673  0.4511
0.5693  0.4526
0.5713  0.4536
0.5733  0.4546
0.5753  0.4560
0.5773  0.4571
0.5793  0.4583
0.5813  0.4599
0.5833  0.4602
0.5853  0.4612
0.5873  0.4628
0.5893  0.4644
0.5913  0.4642
0.5933  0.4648
0.5953  0.4639
0.5973  0.4660
0.5993  0.4659
0.6011  0.4659
0.6027  0.4668
0.6043  0.4674
0.6059  0.4676
0.6075  0.4673
0.6091  0.4683
0.6107  0.4693
0.6123  0.4692
0.6139  0.4711
0.6155  0.4694
0.6171  0.4709
0.6187  0.4712
0.6203  0.4720
0.6219  0.4723
0.6235  0.4727
0.6251  0.4742
0.6267  0.4737
0.6283  0.4741
0.6299  0.4756
0.6317  0.4767
0.6337  0.4761
0.6357  0.4772
0.6377  0.4785
0.6397  0.4782
0.6417  0.4800
0.6437  0.4803
0.6457  0.4808
0.6477  0.4811
0.6497  0.4817
0.6517  0.4838
0.6537  0.4844
0.6557  0.4848
0.6577  0.4860
0.6597  0.4874
0.6617  0.4910
0.6637  0.4914
0.6657  0.4941
0.6677  0.4919
0.6702  0.4930
0.6732  0.4930
0.6762  0.4951
0.6792  0.4960
0.6822  0.4984
0.6852  0.4995
0.6882  0.5009
0.6912  0.5021
0.6942  0.5054
0.6972  0.5041
0.7002  0.5056
0.7020  0.5051
0.7040  0.5061
0.7060  0.5078
0.7080  0.5086
0.7100  0.5086
0.7120  0.5097
0.7140  0.5118
0.7160  0.5129
0.7180  0.5136
0.7200  0.5140
0.7220  0.5139
0.7240  0.5162
0.7260  0.5165
0.7280  0.5184
0.7300  0.5189
0.7320  0.5195
0.7340  0.5205
0.7360  0.5220
0.7380  0.5224
0.7400  0.5239
0.7420  0.5242
0.7440  0.5259
0.7460  0.5254
0.7480  0.5283
0.7505  0.5285
0.7535  0.5315
0.7565  0.5308
0.7595  0.5332
0.7625  0.5338
0.7655  0.5358
0.7685  0.5374
0.7715  0.5398
0.7745  0.5409
0.7775  0.5401
0.7810  0.5434
0.7850  0.5434
0.7890  0.5451
0.7930  0.5475
0.7970  0.5500
0.8015  0.5506
0.8065  0.5528
0.8115  0.5545
0.8165  0.5563
0.8220  0.5581
0.8280  0.5587
0.8350  0.5587
0.8430  0.5613
0.8510  0.5613
0.8590  0.5622
0.8710  0.5647
0.8830  0.5646
0.8940  0.5724
0.9040  0.5754
0.9140  0.5758
0.9240  0.5771
0.9330  0.5816
0.9410  0.5803
0.9490  0.5813
0.9570  0.5844
0.9640  0.5871
0.9700  0.5857
0.9760  0.5866
0.9820  0.5898
0.9880  0.5906
0.9940  0.5890
1.0000  0.5937
1.0060  0.5934
1.0120  0.5933
1.0180  0.5964
1.0235  0.5965
1.0285  0.5988
1.0335  0.6001
1.0385  0.5990
1.0435  0.6015
1.0485  0.6019
1.0535  0.6038
1.0585  0.6021
1.0635  0.6030
1.0685  0.6046
1.0735  0.6063
1.0785  0.6067
1.0835  0.6071
1.0885  0.6073
1.0935  0.6072
1.0985  0.6094
1.1035  0.6079
1.1085  0.6107
1.1135  0.6112
1.1185  0.6116
1.1235  0.6105
1.1285  0.6100
1.1335  0.6114
1.1385  0.6154
1.1435  0.6123
1.1485  0.6145
1.1535  0.6147
1.1585  0.6158
1.1635  0.6154
1.1685  0.6143
1.1735  0.6154
1.1785  0.6175
1.1835  0.6157
1.1885  0.6190
1.1935  0.6173
1.1985  0.6190
1.2035  0.6181
1.2085  0.6185
1.2135  0.6176
1.2185  0.6199
1.2235  0.6188
1.2285  0.6191
1.2335  0.6211
1.2385  0.6192
1.2435  0.6226
1.2485  0.6214
1.2535  0.6219
1.2585  0.6218
1.2635  0.6220
1.2685  0.6238
1.2735  0.6219
1.2785  0.6241
1.2835  0.6225
1.2885  0.6244
1.2935  0.6237
1.2985  0.6238
1.3035  0.6262
1.3085  0.6267
1.3135  0.6265
1.3185  0.6272
1.3235  0.6254
1.3285  0.6264
1.3335  0.6280
1.3385  0.6280
1.3435  0.6262
1.3485  0.6282
1.3535  0.6278
1.3585  0.6291
1.3635  0.6268
1.3685  0.6273
1.3735  0.6286
1.3785  0.6275
1.3835  0.6290
1.3885  0.6282
1.3935  0.6279
1.3985  0.6277
1.4035  0.6244
1.4085  0.6230
1.4135  0.6217
1.4185  0.6224
1.4235  0.6234
1.4285  0.6259
1.4335  0.6244
1.4385  0.6250
1.4435  0.6259
1.4485  0.6278
1.4535  0.6269
1.4585  0.6272
1.4635  0.6292
1.4685  0.6323
1.4735  0.6316
1.4785  0.6325
1.4835  0.6333
1.4885  0.6336
1.4935  0.6338
1.4985  0.6308
1.5035  0.6315
1.5085  0.6333
1.5135  0.6336
1.5185  0.6366
1.5235  0.6348
1.5285  0.6365
1.5340  0.6380
1.5400  0.6373
1.5460  0.6387
1.5520  0.6364
1.5580  0.6416
1.5640  0.6404
1.5705  0.6373
1.5775  0.6401
1.5845  0.6418
1.5915  0.6417
1.5985  0.6398
1.6055  0.6412
1.6125  0.6411
1.6195  0.6405
1.6265  0.6433
1.6335  0.6422
1.6405  0.6458
1.6475  0.6434
1.6545  0.6435
1.6615  0.6448
1.6685  0.6449
1.6760  0.6428
1.6840  0.6407
1.6920  0.6466
1.7000  0.6492
1.7080  0.6468
1.7160  0.6477
1.7240  0.6439
1.7320  0.6473
1.7400  0.6440
1.7480  0.6503
1.7560  0.6502
1.7640  0.6469
1.7720  0.6508
1.7800  0.6501
1.7880  0.6481
1.7960  0.6483
1.8050  0.6486
1.8150  0.6477
1.8250  0.6437
1.8350  0.6484
1.8450  0.6488
1.8550  0.6499
1.8650  0.6426
1.8750  0.6452
1.8850  0.6371
1.8950  0.6242
1.9050  0.6169
1.9150  0.6091
1.9250  0.6061
1.9350  0.6073
1.9450  0.6093
1.9550  0.6114
1.9650  0.6153
1.9750  0.6189
1.9850  0.6240
1.9950  0.6300
2.0050  0.6310
2.0150  0.6330
2.0250  0.6359
2.0350  0.6416
2.0450  0.6438
2.0550  0.6460
2.0650  0.6457
2.0750  0.6479
2.0850  0.6476
2.0950  0.6525
2.1050  0.6572
2.1150  0.6551
2.1250  0.6599
2.1350  0.6594
2.1450  0.6548
2.1550  0.6553
2.1650  0.6523
2.1750  0.6537
2.1850  0.6480
2.1950  0.6525
2.2050  0.6446
2.2150  0.6492
2.2250  0.6481
2.2350  0.6509
2.2450  0.6521
2.2550  0.6548
2.2650  0.6534
2.2750  0.6539
2.2850  0.6542
2.2950  0.6561
2.3050  0.6505
2.3150  0.6510
2.3250  0.6539
2.3350  0.6541
2.3450  0.6508
2.3550  0.6453
2.3650  0.6519
2.3750  0.6525
2.3860  0.6463
2.4000  0.6453
2.4180  0.6416
2.4400  0.6337
2.4660  0.6262
2.4960  0.6221
2.5280  0.6162
2.5600  0.6068
2.5920  0.6047
2.6240  0.6017
2.6560  0.5771
2.6880  0.4644
2.7200  0.2880
2.7520  0.2423
2.7840  0.2286
2.8160  0.2188
2.8480  0.1983
2.8800  0.1799
2.9120  0.1694
2.9440  0.1688
2.9760  0.1586
